ecg
36
11
-3
-30
-20
-15
-44
-95
-67
-66
-39
-39
108
31
-52
-49
-168
-69
-70
5
15
-25
52
-10
-53
-78
-98
-82
-86
-51
-28
-15
-3
-7
-82
-69
-113
-135
-58
34
-62
-18
-66
33
-57
-117
-94
-101
-116
-21
-122
21
-36
-27
-99
-51
-111
-95
-85
-71
-36
-3
-73
-25
-38
-101
-88
-122
-111
-60
-30
-23
-16
-24
-91
-99
-46
-152
-121
-130
-30
24
-17
-61
-87
-116
-118
-181
-147
-122
-79
-11
7
-43
-58
-98
-139
-150
-115
-91
-37
-36
-43
-14
-85
-100
-117
-140
-94
-2
-47
45
3
81
67
17
28
33
185
142
145
98
142
208
170
243
186
261
386
405
477
554
498
429
307
230
174
186
228
246
227
292
223
162
204
109
84
81
111
43
125
115
105
-8
-75
-173
-224
-140
-211
-206
-107
-42
-45
-69
-82
-128
-144
-175
-162
-159
-66
-110
-72
-99
-142
-137
-159
-221
-201
-130
-65
-81
-88
-69
-91
-151
-157
-160
-188
-235
-336
-397
-327
-319
-179
23
367
879
1254
1708
2357
2760
3021
3035
2444
1628
797
-162
-784
-1268
-1628
-1606
-1549
-1548
-1434
-1378
-1191
-1103
-1034
-786
-447
-238
-35
-9
28
9
-8
51
-69
78
55
156
183
195
198
169
127
126
149
151
178
184
250
264
230
204
172
186
203
210
239
265
271
298
264
254
225
206
225
241
328
292
293
309
291
211
235
197
320
272
311
343
361
373
359
351
281
246
300
318
355
384
399
408
346
347
336
340
321
374
388
433
509
434
439
408
383
346
395
428
343
518
579
513
489
471
465
412
503
467
513
550
568
620
626
515
519
472
530
543
583
620
664
655
614
636
557
597
491
617
664
648
593
726
709
651
603
629
619
594
658
644
695
659
678
559
531
540
498
486
537
554
508
512
414
350
341
211
178
188
175
173
139
147
55
8
76
-45
-41
-50
-29
-42
-48
-46
-41
-137
-158
-219
-181
-194
-223
-132
-109
-128
-126
-169
-240
-237
-249
-215
-190
-197
-156
-185
-147
-192
-201
-236
-231
-204
-207
-123
-141
-158
-148
-163
-174
-286
-178
-117
-173
-99
-122
-118
-118
-112
-151
-158
-182
-206
-173
-131
-73
-68
-104
-127
-189
-141
-129
-128
-104
-117
-74
17
-86
-156
-141
-83
-128
-137
-76
-65
-44
-17
-71
-40
-110
-156
-153
-143
-119
-74
-51
-45
-43
-114
-101
-151
-204
-94
-138
-86
-54
-73
-73
-61
-119
-154
-173
-157
-132
-104
-109
-88
-107
-120
-188
-205
-185
-149
-54
-133
-116
-98
-67
-107
-165
-188
-165
-197
-177
-113
-159
-61
-143
-119
-146
-185
-193
-194
-108
-138
-106
-120
-105
-130
-160
-214
-205
-179
-136
-160
-114
-129
-112
-146
-157
-217
-239
-154
-137
-152
-67
-100
-106
-127
-169
-209
-244
-201
-178
-155
-95
-101
-124
-130
-173
-183
-213
-217
-179
-143
-171
-8
-113
-167
-204
-191
-183
-200
-150
-139
-112
-69
-115
-187
-181
-265
-179
-161
-173
-139
-124
-103
-109
-174
-180
-213
-232
-178
-176
-197
-86
-70
-105
-138
-197
-204
-213
-200
-187
-154
-146
-97
-124
-167
-169
-181
-233
-215
-182
-187
-114
-135
-103
-145
-167
-204
-217
-206
-218
-197
-110
-85
-100
-51
-132
-117
-81
-115
-87
-46
15
121
60
79
64
-12
-9
-24
49
150
229
314
347
404
404
438
389
342
195
210
184
242
240
186
203
135
142
76
40
119
84
136
127
93
32
18
-20
-65
-122
-158
-173
-186
-230
-165
-233
-196
-255
-234
-244
-227
-224
-231
-129
-153
-244
-161
-280
-235
-259
-197
-203
-196
-215
-230
-236
-199
-276
-218
-257
-185
-214
-182
-182
-227
-371
-557
-639
-658
-646
-343
-75
389
822
1195
1787
2409
2885
3224
3028
2462
1771
956
443
-7
-624
-1140
-1386
-1248
-1400
-1158
-1106
-998
-970
-834
-632
-361
-259
-149
-47
-75
-4
26
-31
-11
-7
-4
-90
-16
-21
-61
5
173
90
106
85
3
-9
61
28
74
166
165
126
126
59
53
76
93
89
114
125
186
149
168
148
96
62
47
137
129
191
194
183
192
157
122
100
97
115
166
131
219
240
268
182
174
143
162
168
186
229
275
298
199
205
238
182
211
245
220
250
307
306
304
222
236
237
268
262
284
315
363
351
351
354
310
272
308
257
351
418
417
407
431
376
374
341
366
360
409
425
465
455
471
445
454
333
366
408
430
449
456
467
451
392
401
308
371
402
406
370
366
407
371
355
297
266
193
161
271
143
270
237
131
85
-30
9
-31
-75
13
-43
-51
-27
-116
-100
-235
-205
-242
-234
-226
-213
-210
-200
-204
-246
-271
-337
-325
-327
-291
-266
-245
-235
-217
-319
-334
-350
-376
-332
-321
-211
-209
-204
-221
-262
-281
-346
-328
-294
-289
-229
-226
-234
-268
-222
-282
-301
-283
-312
-218
-224
-211
-140
-211
-237
-234
-281
-315
-263
-245
-245
-231
-180
-192
-215
-233
-229
-252
-287
-239
-216
-169
-179
-210
-203
-232
-272
-339
-251
-208
-222
-175
-169
-183
-222
-261
-270
-278
-269
-212
-240
-217
-145
-152
-276
-260
-262
-305
-262
-289
-316
-144
-148
-190
-224
-274
-291
-281
-257
-283
-211
-224
-206
-186
-254
-223
-276
-241
-284
-290
-257
-166
-179
-208
-231
-249
-296
-268
-312
-278
-270
-175
-166
-249
-210
-345
-265
-267
-279
-242
-227
-232
-245
-216
-222
-272
-319
-342
-302
-248
-241
-223
-238
-245
-256
-275
-305
-324
-335
-294
-223
-251
-123
-260
-192
-242
-300
-299
-286
-297
-240
-266
-281
-237
-158
-245
-295
-301
-291
-299
-255
-212
-214
-202
-219
-298
-333
-296
-260
-304
-267
-213
-182
-214
-241
-313
-263
-292
-313
-266
-273
-272
-195
-203
-214
-281
-292
-305
-311
-293
-242
-235
-231
-224
-241
-233
-299
-271
-306
-285
-263
-224
-206
-207
-239
-258
-298
-309
-286
-340
-226
-224
-208
-201
-239
-246
-291
-320
-307
-281
-275
-243
-185
-269
-259
-304
-300
-266
-271
-303
-245
-202
-216
-169
-217
-251
-267
-327
-311
-283
-216
-210
-177
-191
-196
-230
-308
-280
-320
-291
-213
-220
-177
-215
-244
-207
-298
-281
-361
-216
-251
-229
-184
-198
-209
-265
-270
-334
-296
-208
-290
-206
-99
-168
-186
-226
-235
-286
-253
-238
-234
-198
-170
-171
-242
-191
-320
-290
-230
-247
-223
-201
-193
-201
-192
-271
-267
-244
-264
-263
-244
-188
-188
-179
-198
-161
-175
-236
-201
-113
-99
-67
-21
-1
40
36
-16
-87
-95
-57
-20
75
148
215
218
271
336
287
281
226
128
93
133
105
142
87
44
-1
23
3
90
-11
50
31
60
-24
-25
-59
-130
-133
-175
-321
-220
-248
-280
-288
-292
-331
-329
-272
-252
-277
-270
-205
-242
-326
-299
-290
-370
-353
-268
-281
-250
-209
-248
-280
-317
-368
-354
-332
-297
-283
-239
-263
-297
-505
-725
-725
-660
-518
-287
116
617
1045
1641
2175
2645
3014
3046
2519
1931
1167
474
-42
-765
-1309
-1460
-1561
-1525
-1432
-1197
-1195
-1084
-1001
-752
-524
-321
-233
-194
-133
-91
-112
-50
-48
-40
-55
-57
-72
-79
-57
24
25
-50
-14
90
20
-6
-64
24
-25
15
62
62
111
142
57
23
6
-25
18
12
75
139
117
132
84
61
60
43
50
108
113
141
187
133
89
96
121
79
103
120
193
141
203
194
138
177
179
48
69
117
247
284
239
270
157
171
181
149
188
205
260
314
279
228
234
233
188
199
232
176
286
338
372
326
267
258
305
227
256
252
341
392
399
386
314
333
318
315
265
295
377
405
428
363
424
376
312
292
342
325
261
404
449
378
351
290
291
257
240
347
284
275
297
304
233
241
165
168
118
85
130
104
96
48
9
-43
-98
-173
-164
-204
-125
-171
-122
-153
-183
-250
-393
-300
-262
-283
-301
-242
-247
-309
-351
-341
-413
-364
-405
-284
-326
-325
-284
-317
-320
-346
-360
-376
-356
-352
-315
-303
-279
-300
-270
-342
-363
-401
-329
-278
-309
-327
-280
-248
-245
-343
-364
-283
-325
-265
-265
-243
-155
-228
-226
-275
-244
-309
-301
-276
-220
-229
-211
-218
-205
-270
-281
-381
-193
-238
-260
-203
-181
-202
-159
-236
-282
-242
-249
-254
-204
-174
-138
-168
-199
-296
-284
-261
-292
-237
-223
-229
-148
-184
-238
-255
-238
-337
-296
-308
-234
-200
-183
-210
-238
-252
-252
-270
-297
-303
-288
-176
-128
-192
-202
-264
-308
-270
-266
-241
-207
-263
-187
-183
-218
-284
-266
-273
-332
-249
-237
-211
-204
-173
-208
-274
-255
-255
-294
-276
-231
-226
-221
-163
-247
-220
-306
-337
-326
-296
-260
-192
-185
-208
-207
-259
-269
-295
-320
-259
-222
-214
-220
-160
-294
-231
-276
-348
-344
-267
-277
-283
-258
-218
-205
-288
-278
-312
-309
-295
-252
-262
-173
-236
-245
-225
-280
-293
-304
-298
-240
-227
-172
-210
-245
-185
-273
-341
-289
-259
-227
-318
-207
-164
-187
-256
-267
-284
-288
-304
-264
-206
-163
-182
-193
-221
-261
-309
-326
-293
-177
-195
-173
-146
-179
-228
-271
-249
-270
-260
-211
-222
-199
-205
-225
-192
-258
-241
-278
-343
-276
-173
-141
-185
-187
-220
-252
-306
-260
-247
-238
-193
-178
-179
-216
-230
-219
-293
-285
-252
-202
-191
-141
-220
-193
-224
-232
-291
-233
-226
-220
-228
-142
-204
-210
-262
-253
-241
-264
-291
-262
-133
-146
-158
-182
-185
-217
-263
-244
-300
-242
-207
-134
-148
-125
-144
-150
-137
-173
-213
58
-77
5
58
69
64
3
-44
-85
-50
17
65
202
292
292
276
285
288
199
151
146
107
187
188
182
165
94
71
72
59
33
70
102
52
19
5
-24
-38
-118
-129
-137
-170
-221
-240
-227
-264
-263
-305
-315
-314
-235
-178
-237
-155
-214
-236
-270
-289
-297
-279
-249
-222
-233
-195
-219
-228
-223
-283
-349
-273
-254
-252
-399
-498
-514
-524
-418
-226
207
634
909
1564
2164
2637
2913
3047
2535
1748
990
87
-345
-945
-1350
-1432
-1424
-1521
-1527
-1350
-1258
-1207
-1106
-835
-573
-254
-196
-152
-139
-103
-115
-134
-101
-66
23
22
4
39
19
-41
-23
-2
19
27
60
108
68
95
24
10
40
29
90
92
171
192
161
113
78
61
55
78
89
132
174
182
143
129
147
121
98
72
126
160
206
183
171
175
149
72
121
139
186
157
224
220
212
214
189
180
140
166
219
224
297
259
172
265
253
276
191
227
221
300
311
329
370
347
273
261
248
247
320
329
397
409
439
359
313
340
292
285
313
462
481
445
454
454
402
335
282
475
479
462
500
497
510
496
491
423
392
376
410
426
447
489
454
490
410
362
326
358
351
349
337
387
358
292
225
165
175
184
116
137
133
104
74
49
-18
-49
-114
-136
-152
-24
-67
-131
-119
-148
-200
-248
-266
-274
-278
-205
-239
-208
-203
-233
-262
-293
-318
-316
-296
-266
-252
-223
-232
-275
-315
-239
-326
-289
-286
-297
-234
-188
-203
-228
-202
-314
-311
-310
-312
-247
-163
-179
-200
-207
-196
-264
-283
-265
-240
-179
-181
-151
-198
-169
-214
-335
-204
-157
-248
-140
-132
-141
-155
-159
-200
-182
-227
-217
-175
-148
-113
-109
-132
-137
-135
-215
-215
-244
-198
-149
-177
-114
-86
-127
-142
-220
-234
-226
-229
-93
-131
-131
-151
-149
-192
-144
-278
-186
-230
-174
-150
-126
-137
-135
-188
-207
-242
-244
-215
-201
-135
-149
-217
-176
-189
-178
-239
-213
-240
-192
-176
-101
-186
-114
-193
-230
-253
-220
-245
-197
-231
-174
-143
-186
-199
-208
-258
-236
-246
-215
-176
-138
-149
-229
-170
-248
-329
-274
-209
-207
-194
-146
-183
-169
-228
-211
-266
-267
-267
-230
-160
-174
-194
-73
-221
-258
-244
-251
-257
-209
-201
-159
-167
-169
-211
-197
-264
-260
-246
-201
-161
-216
-158
-188
-238
-229
-243
-237
-241
-170
-239
-152
-69
-184
-207
-250
-257
-216
-311
-201
-197
-177
-88
-163
-180
-209
-278
-256
-240
-197
-180
-171
-148
-139
-242
-266
-363
-204
-196
-196
-150
-164
-160
-152
-175
-204
-230
-251
-249
-198
-212
-137
-177
-140
-184
-200
-262
-239
-191
-173
-112
-144
-132
-165
-212
-174
-201
-239
-221
-203
-184
-149
-116
-172
-186
-247
-202
-179
-231
-220
-168
-124
-115
-144
-157
-182
-222
-228
-231
-177
-129
-138
-132
-137
-152
-158
-161
-195
-218
-136
-114
-157
-100
-107
-162
-193
-216
-240
-173
-183
-163
-113
-99
-97
-205
-180
-182
-182
-202
-128
-101
-151
-84
-113
-99
-201
-173
-284
-197
-84
-93
-137
-86
-33
-140
-180
-178
-182
-205
-152
-126
-116
-29
-115
-124
-174
-198
-154
-168
-136
-135
-18
-33
-23
-3
-32
-13
6
-32
71
33
96
90
141
55
-77
70
63
97
154
237
272
365
303
335
357
351
281
225
217
161
192
209
219
243
143
184
204
108
104
117
102
149
168
65
89
52
-10
-51
-49
-104
-198
-109
-119
-140
-165
-208
-210
-191
-215
-127
-88
-113
-103
-115
-199
-183
-213
-213
-204
-142
-168
-74
-96
-138
-175
-183
-244
-251
-213
-280
-502
-513
-440
-444
-300
88
438
892
1363
2042
2652
3128
3390
3083
2468
1713
913
371
-141
-622
-1100
-1235
-1147
-1230
-1084
-1061
-1066
-1032
-817
-489
-234
-153
50
88
-28
7
-26
-69
0
99
93
139
115
104
78
90
27
50
58
117
120
99
185
150
119
101
98
49
114
114
196
217
175
191
143
103
182
120
100
225
201
234
271
221
189
154
158
137
148
185
294
271
236
192
207
205
157
157
167
251
267
301
317
313
253
206
200
290
284
340
336
371
327
367
354
296
260
317
336
333
379
423
425
425
346
350
356
343
352
378
454
442
466
488
422
442
337
374
350
484
505
519
506
531
452
504
428
451
475
494
524
542
516
575
552
475
467
441
455
505
485
526
536
492
472
433
430
396
380
413
427
371
437
414
295
235
227
214
177
262
151
113
166
115
26
-18
-42
-49
-74
-28
-28
-47
-5
-52
-136
-173
-236
-189
-222
-203
-150
-87
-119
-154
-200
-211
-238
-274
-211
-244
-132
-145
-153
-153
-184
-222
-207
-264
-250
-165
-181
-159
-87
-130
-185
-199
-253
-268
-213
-139
-131
-124
-129
-85
-148
-169
-203
-217
-165
-130
-130
-59
-91
-91
-142
-131
-151
-175
-158
-140
-82
-63
-40
-74
-85
-128
-196
-173
-129
-137
-121
9
-22
-46
-71
-101
-198
-101
-75
-72
-19
-29
-11
-6
-112
-119
-106
-110
-114
-106
-70
-68
-76
-102
-37
-114
-97
-127
-168
-118
-97
-100
-63
-113
-94
-159
-117
-158
-196
-103
-58
-66
-64
-123
-67
-76
-130
-139
-136
-95
-84
-55
-113
-120
-115
-62
-159
-201
-173
-104
-84
-94
-61
-53
-77
-131
-130
-146
-149
-163
-95
-123
-35
-37
-73
-130
-122
-246
-129
-136
-60
-53
-1
-89
-80
-126
-148
-163
-196
-136
-82
-25
-19
-93
-91
-129
-140
-155
-104
-96
-55
-69
-45
-60
-100
-117
-150
-164
-156
-109
-92
-73
-61
-21
-79
-95
-109
-111
-154
-118
-67
-98
-7
-54
-151
-93
-133
-124
-149
-115
-73
-51
-4
-40
-75
-101
-118
-159
-128
-127
-41
-53
-83
-11
-47
-47
-95
-157
-113
-109
-45
-57
0
-4
-46
-113
-97
-143
-149
-84
-38
-83
-3
23
-41
-66
-107
-130
-77
-101
-49
-65
25
-25
-2
-85
-84
-131
-95
-87
-70
-44
-29
0
-77
-56
-55
-172
-112
-88
-18
-52
-23
-44
-67
-83
-159
-131
-93
-56
-64
-136
2
28
12
-72
-56
-94
-101
-93
-71
-3
-42
-27
-45
-55
-81
-98
-48
-25
46
82
115
103
134
76
12
78
41
76
161
135
159
169
177
240
203
259
254
303
342
437
437
411
376
249
190
185
249
235
275
263
339
258
203
186
141
137
118
145
102
66
207
158
75
-109
-124
-134
-181
-104
-45
-65
-59
-103
-43
-60
-121
-120
-136
-112
-99
-115
-29
-60
-29
-93
-103
-157
-161
-103
-86
-61
-79
-17
-103
-173
-281
-369
-406
-410
-193
118
490
940
1207
1671
2302
2663
2954
3093
2535
1831
1026
57
-631
-1161
-1605
-1666
-1594
-1638
-1419
-1281
-1091
-1031
-884
-768
-500
-352
-140
-57
-12
102
125
157
136
108
95
79
128
152
189
184
216
249
233
221
191
162
201
179
189
290
305
302
280
278
240
194
248
193
321
334
371
314
283
343
255
210
333
235
290
335
395
361
363
307
296
251
302
265
349
354
342
394
389
358
325
337
337
302
372
393
434
372
340
525
417
277
331
398
416
447
524
327
462
497
467
485
450
455
540
517
585
560
572
564
477
512
502
507
547
582
613
680
587
564
607
609
550
572
611
575
711
750
753
680
657
647
635
649
669
690
734
729
746
646
716
615
599
594
701
662
668
641
625
587
532
501
464
424
446
482
452
430
382
305
226
220
179
157
156
157
160
99
36
30
25
-7
-80
-87
-61
-31
-26
-58
-3
-67
-103
-169
-155
-183
-136
-142
-88
-84
-102
-139
-208
-188
-229
-180
-134
-121
-101
-91
-93
-128
-191
-186
-242
-151
-133
-94
-139
-46
-83
-85
-152
-183
-168
-163
-163
-65
-30
-75
4
-175
-153
-106
-160
-119
-122
-61
-43
-3
-52
-66
-87
-77
-104
-90
-67
-52
-27
43
11
-21
-80
-81
-129
-119
5
20
-6
46
17
-13
-49
-64
-93
-108
-63
-33
-29
11
5
-15
-79
-40
-121
-87
-62
-46
13
-24
-23
-8
-109
-80
-148
-113
-87
-75
-70
10
-34
-71
-55
-141
-169
-160
-71
-37
-69
-25
-30
-88
-71
-154
-175
-122
-123
-74
-40
-7
-59
-90
-160
-161
-123
-127
-141
-84
-83
-51
-85
-92
-93
-129
-135
-176
-119
-72
-69
-71
-82
-104
-131
-142
-174
-177
-118
-100
-90
-86
-78
-92
-117
-120
-179
-180
-161
-122
-52
-93
-81
-80
-91
-124
-147
-136
-139
-96
-117
-70
-91
-105
-117
-152
-166
-205
-150
-140
-91
-33
-92
-102
-137
-171
-197
-157
-177
-95
-68
-104
-56
-139
-118
-115
-170
-165
-140
-124
-101
-82
-100
-81
-138
-131
-202
-127
-170
-75
-72
-80
-84
-125
-141
-126
-159
-162
-154
-104
-95
-71
-57
-124
-146
-175
-198
-97
-124
-48
-117
-56
-109
-63
-130
-152
-249
-133
-139
-86
-98
-66
-22
-32
-134
-188
-153
-156
-215
-76
-79
-99
-91
-73
-185
-120
-149
-137
-172
-128
-75
-87
-47
-82
-127
-147
-157
-152
-220
-22
-130
36
54
38
26
-10
-15
23
78
66
153
168
131
174
74
64
67
169
179
305
342
453
426
426
355
284
213
125
211
174
227
294
232
305
243
177
135
77
90
123
95
151
142
133
63
17
-59
-89
-194
-200
-172
-190
-117
-148
-171
-184
-209
-184
-200
-160
-109
-112
-116
-157
-233
-183
-259
-255
-131
-144
-64
-98
-153
-135
-202
-185
-284
-253
-353
-493
-564
-482
-472
-264
-3
410
835
1284
1878
2513
2977
3303
3123
2497
1740
942
430
-189
-716
-1165
-1226
-1243
-1271
-1088
-1053
-1057
-1054
-888
-621
-338
-139
13
5
18
12
-17
-85
-45
-22
43
102
131
101
72
49
58
40
21
39
99
84
181
130
172
97
117
131
106
130
92
107
170
224
220
170
106
137
103
130
187
242
190
250
246
188
157
178
123
156
214
255
229
260
269
197
133
137
230
150
205
253
281
293
269
279
241
226
192
253
252
275
318
382
361
338
264
250
264
319
330
372
410
391
379
409
375
324
284
345
403
397
493
440
500
455
405
408
394
359
423
510
482
485
563
499
481
462
477
437
551
573
559
591
533
535
512
485
482
438
473
523
574
553
520
511
478
424
345
437
420
399
402
499
354
319
278
188
156
168
126
141
140
103
113
-14
-19
33
-87
-87
-62
-53
-49
-58
-70
-93
-181
-206
-266
-177
-255
-127
-148
-141
-178
-152
-219
-244
-302
-279
-228
-219
-157
-141
-176
-193
-257
-241
-251
-271
-227
-185
-178
-139
-162
-194
-216
-228
-264
-272
-138
-178
-150
-143
-118
-178
-143
-191
-271
-134
-210
-134
-165
-82
-137
-123
-174
-202
-243
-185
-157
-123
-137
-72
-107
-138
-162
-159
-231
-179
-171
-175
-75
-80
-106
-136
-101
-165
-192
-146
-135
-103
-137
-126
-126
-133
-223
-140
-203
-147
-204
-155
-85
-89
-99
-140
-188
-191
-161
-169
-180
-88
-167
-101
-88
-112
-167
-198
-206
-219
-179
-167
-140
-105
-135
-114
-163
-187
-185
-232
-240
-164
-118
-65
-148
-139
-164
-185
-211
-197
-195
-146
-171
-190
-132
-135
-180
-173
-218
-203
-169
-165
-187
-132
-125
-189
-164
-202
-212
-196
-218
-98
-152
-191
-138
-154
-203
-183
-201
-194
-173
-172
-142
-147
-122
-193
-142
-195
-249
-196
-203
-170
-180
-121
-168
-101
-171
-200
-237
-223
-214
-215
-95
-133
-142
-144
-191
-198
-197
-215
-231
-188
-150
-124
-157
-203
-190
-144
-284
-192
-218
-192
-127
-92
-147
-139
-171
-212
-238
-204
-247
-227
-169
-102
-99
-146
-187
-192
-225
-218
-224
-149
-120
-123
-149
-130
-155
-216
-215
-242
-212
-182
-161
-134
-126
-136
-154
-203
-239
-204
-199
-149
-153
-164
-86
-164
-117
-186
-210
-229
-189
-142
-143
-118
-124
-121
-174
-208
-217
-216
-236
-141
-66
-100
-127
-114
-169
-189
-217
-236
-204
-157
-139
-91
-116
-133
-205
-182
-174
-203
-219
-183
-142
-122
-136
-160
-132
-121
-156
-225
-247
-169
-127
-124
-113
-116
-146
-216
-205
-182
-84
-38
-61
-5
12
29
3
28
79
61
28
47
60
91
146
190
227
222
300
383
376
409
406
293
213
183
198
138
104
144
97
203
244
150
158
134
116
66
-26
-1
-11
31
8
23
-28
-178
-198
-237
-291
-279
-244
-246
-169
-149
-158
-180
-183
-252
-234
-247
-242
-208
-177
-154
-115
-139
-239
-268
-231
-268
-254
-238
-159
-162
-142
-174
-270
-507
-660
-591
-621
-411
-120
334
775
1189
1763
2320
2788
3148
3200
2608
1970
1212
462
-151
-797
-1318
-1493
-1552
-1487
-1391
-1147
-1109
-1025
-962
-774
-463
-251
-108
-81
-61
-57
41
11
-33
-9
-5
25
-19
-8
47
37
64
124
106
103
88
-12
38
67
79
145
156
190
141
82
138
110
28
154
122
180
128
222
218
133
166
126
126
158
162
190
187
286
207
228
173
176
143
170
145
220
266
210
252
266
213
219
177
177
238
308
339
313
329
304
289
259
204
198
319
315
330
356
383
372
321
346
302
343
302
417
344
429
472
419
399
392
349
339
444
445
438
536
499
489
467
464
462
447
474
446
645
555
575
537
498
505
481
546
491
555
613
558
604
562
517
538
475
473
448
519
563
449
482
476
406
392
333
324
279
356
296
289
270
131
87
68
-16
38
50
98
7
3
55
-57
-119
-128
-169
-109
-168
-129
-127
-106
-155
-135
-201
-217
-259
-265
-250
-219
-229
-165
-210
-189
-246
-225
-328
-307
-254
-224
-191
-162
-153
-204
-254
-272
-283
-261
-238
-161
-219
-188
-173
-132
-180
-233
-243
-188
-209
-184
-181
-151
-103
-133
-147
-184
-244
-162
-200
-158
-134
-73
-118
-146
-120
-165
-178
-198
-241
-117
-64
-104
-63
-63
-108
-156
-173
-162
-164
-139
-55
-66
-72
-80
-140
-155
-157
-162
-161
-131
-133
-96
-58
-113
-74
-174
-173
-187
-164
-121
-118
-66
-140
-100
-93
-176
-204
-192
-195
-166
-133
-108
-84
-108
-181
-163
-223
-137
-247
-175
-149
-157
-84
-85
-192
-201
-205
-179
-163
-153
-144
-73
-103
-145
-168
-163
-160
-206
-185
-146
-136
-132
-70
-121
-116
-133
-221
-218
-186
-198
-123
-78
-148
-142
-163
-196
-209
-189
-195
-182
-163
-79
-122
-125
-155
-178
-208
-232
-181
-139
-139
-157
-100
-141
-201
-167
-165
-219
-199
-134
-110
-115
-95
-119
-146
-180
-201
-211
-202
-158
-157
-122
-92
-100
-189
-245
-205
-189
-191
-178
-128
-134
-84
-112
-147
-179
-195
-221
-176
-170
-146
-139
-142
-116
-85
-147
-109
-111
-132
-67
-32
22
64
88
96
42
-6
-64
-29
54
114
240
259
345
345
404
417
389
285
244
246
232
203
261
181
212
160
65
62
124
114
114
144
92
102
9
-2
-71
16
-208
-160
-226
-219
-113
-176
-225
-239
-239
-203
-199
-193
-156
-165
-129
-155
-258
-193
-232
-196
-230
-182
-195
-151
-156
-149
-187
-179
-262
-222
-229
-176
-125
-191
-279
-457
-508
-460
-416
-190
204
695
1012
1511
2058
2550
2886
3075
2714
1964
1260
217
-368
-1018
-1447
-1659
-1607
-1667
-1657
-1395
-1242
-1136
-1040
-834
-566
-331
-221
-185
-96
-55
-15
35
31
26
77
126
56
96
42
70
60
146
118
224
188
147
133
92
123
185
191
187
249
200
213
257
178
168
238
151
187
220
278
255
264
239
191
190
150
98
194
380
235
285
241
340
315
259
203
185
248
280
314
351
330
345
360
282
291
314
290
393
422
402
386
395
366
337
332
336
415
428
447
489
445
442
466
417
411
425
466
472
427
514
560
596
552
529
510
513
547
604
582
589
671
666
572
635
626
596
635
651
711
737
720
706
706
689
678
653
689
736
769
760
759
705
701
711
645
643
646
619
691
663
685
614
530
476
484
402
413
342
352
341
337
247
187
146
56
31
84
105
48
55
0
7
1
-99
-141
-162
-157
-85
-115
-76
-130
-133
-130
-127
-234
-220
-179
-196
-197
-133
-117
-135
-258
-143
-222
-215
-183
-147
-135
-139
-100
-125
-187
-187
-169
-188
-153
-141
-101
-103
-97
-136
-172
-147
-214
-149
-136
-115
-87
-46
-30
-74
-75
-76
-168
-163
-81
-57
-33
-26
-36
50
-67
-98
-82
-75
-128
-36
-5
5
-17
30
-6
-35
-36
-55
-75
-46
39
41
0
36
-34
-81
-29
-66
-32
-55
6
28
29
21
-25
-62
-88
-54
-84
-13
9
15
34
-11
-24
-63
-19
-100
-47
-50
4
17
55
23
0
-36
-51
-81
-68
-59
-14
37
24
-51
0
-17
-54
-89
-70
-21
8
18
37
-24
-134
-77
-41
-77
-71
-37
-17
2
78
3
-46
-50
-103
-27
-44
14
-3
9
23
28
-24
-40
-56
-58
-80
-37
16
46
-38
33
22
-33
-78
-41
-18
-58
15
-17
-24
69
-20
-10
-33
-80
-82
-75
26
-14
78
1
3
-5
-73
-64
-41
-57
8
17
9
7
17
-15
-27
-48
-70
-29
39
58
-8
37
-66
18
-48
-57
-53
-33
48
27
60
89
12
6
-16
-57
-42
-25
47
47
73
54
57
0
-65
-43
-43
33
64
75
97
13
79
42
38
2
163
80
127
171
204
227
213
218
193
233
231
217
271
250
349
472
445
471
567
581
659
669
595
541
493
467
429
363
392
360
348
349
380
290
358
384
328
317
241
262
263
282
254
186
156
55
85
-45
-13
12
26
22
70
78
118
109
61
46
-18
-20
6
-41
118
73
89
167
67
67
25
-5
-17
